 % time (yr) / temperature (C) / _surT (C) / _benT (degrees C)
       0.500   11.961551   26.943225   10.301779
       1.500   11.955872   26.800191   10.301759
       2.500   11.950483   26.694054   10.301728
       3.500   11.945461   26.616494   10.301574
       4.500   11.940736   26.556971   10.301297
       5.500   11.936256   26.504394   10.301021
       6.500   11.931986   26.459363   10.300710
       7.500   11.927898   26.421384   10.300378
       8.500   11.923967   26.387284   10.299997
       9.500   11.920174   26.357320   10.299500
      10.500   11.916501   26.331486   10.298911
      11.500   11.912933   26.308855   10.298294
      12.500   11.909461   26.287527   10.297687
      13.500   11.906078   26.268241   10.297050
      14.500   11.902777   26.249975   10.296404
      15.500   11.899554   26.233375   10.295766
      16.500   11.896402   26.218423   10.295159
      17.500   11.893315   26.204528   10.294579
      18.500   11.890290   26.191584   10.293990
      19.500   11.887323   26.179222   10.293381
      21.500   11.881547   26.157248   10.292076
      23.500   11.875961   26.137240   10.290896
      25.500   11.870544   26.119220   10.289733
      27.500   11.865283   26.102924   10.288521
      29.500   11.860163   26.088320   10.287190
      31.500   11.855173   26.075221   10.285832
      33.500   11.850303   26.062447   10.284474
      35.500   11.845544   26.053140   10.283126
      37.500   11.840889   26.043668   10.281778
      39.500   11.836333   26.033182   10.280425
      41.500   11.831869   26.023119   10.279044
      43.500   11.827492   26.014389   10.277615
      45.500   11.823196   26.005531   10.276110
      47.500   11.818978   25.997254   10.274500
      49.500   11.814831   25.989423   10.272774
      51.500   11.810755   25.982455   10.270934
      53.500   11.806745   25.975167   10.268972
      55.500   11.802799   25.968148   10.266902
      57.500   11.798914   25.961429   10.264746
      59.500   11.795089   25.954743   10.262532
      61.500   11.791321   25.948505   10.260251
      63.500   11.787608   25.942923   10.257911
      65.500   11.783945   25.937344   10.255519
      67.500   11.780331   25.931875   10.253080
      69.500   11.776765   25.926629   10.250592
      71.500   11.773245   25.922173   10.248072
      73.500   11.769769   25.917306   10.245521
      75.500   11.766336   25.912654   10.242932
      77.500   11.762942   25.908329   10.240311
      79.500   11.759585   25.904299   10.237667
      81.500   11.756265   25.900101   10.235002
      83.500   11.752981   25.896100   10.232322
      85.500   11.749734   25.892155   10.229625
      87.500   11.746521   25.888320   10.226912
      89.500   11.743341   25.884619   10.224182
      91.500   11.740194   25.881041   10.221431
      93.500   11.737079   25.877592   10.218661
      95.500   11.733993   25.874892   10.215875
      97.500   11.730937   25.871668   10.213071
      99.500   11.727909   25.868540   10.210252
     104.500   11.720461   25.861057   10.203143
     109.500   11.713174   25.854057   10.195949
     114.500   11.706038   25.847497   10.188708
     119.500   11.699045   25.841340   10.181437
     124.500   11.692184   25.835544   10.174140
     129.500   11.685450   25.830240   10.166848
     134.500   11.678830   25.825812   10.159581
     139.500   11.672321   25.821002   10.152338
     144.500   11.665918   25.816385   10.145119
     149.500   11.659616   25.812010   10.137924
     154.500   11.653411   25.807884   10.130769
     159.500   11.647296   25.803997   10.123643
     164.500   11.641268   25.800297   10.116553
     169.500   11.635321   25.796796   10.109490
     174.500   11.629452   25.793477   10.102454
     179.500   11.623656   25.790338   10.095442
     184.500   11.617931   25.787358   10.088455
     189.500   11.612271   25.784553   10.081493
     194.500   11.606674   25.781874   10.074555
     199.500   11.601136   25.779343   10.067640
     204.500   11.595656   25.777126   10.060749
     209.500   11.590229   25.774844   10.053882
     214.500   11.584853   25.772670   10.047044
     219.500   11.579526   25.770614   10.040245
     224.500   11.574246   25.768661   10.033517
     229.500   11.569009   25.766782   10.026808
     234.500   11.563815   25.764968   10.020143
     239.500   11.558662   25.763222   10.013525
     244.500   11.553548   25.761538   10.006929
     249.500   11.548472   25.759923   10.000403
     254.500   11.543431   25.758374    9.993930
     259.500   11.538426   25.756885    9.987509
     264.500   11.533454   25.755452    9.981138
     269.500   11.528514   25.754068    9.974814
     274.500   11.523606   25.752728    9.968526
     279.500   11.518727   25.751437    9.962281
     284.500   11.513877   25.750186    9.956097
     289.500   11.509055   25.749575    9.949974
     294.500   11.504260   25.748399    9.943911
     299.500   11.499492   25.747260    9.937908
     304.500   11.494748   25.746161    9.931965
     309.500   11.490029   25.745088    9.926082
     314.500   11.485333   25.744057    9.920259
     319.500   11.480661   25.743053    9.914494
     324.500   11.476010   25.742064    9.908787
     329.500   11.471379   25.741319    9.903135
     334.500   11.466768   25.740401    9.897534
     339.500   11.462177   25.739512    9.891987
     344.500   11.457606   25.738636    9.886495
     349.500   11.453054   25.737770    9.881054
     354.500   11.448522   25.736907    9.875673
     359.500   11.444010   25.736075    9.870341
     364.500   11.439516   25.735244    9.865049
     369.500   11.435040   25.734445    9.859800
     374.500   11.430582   25.733638    9.854594
     379.500   11.426143   25.732862    9.849428
     384.500   11.421721   25.732077    9.844305
     389.500   11.417316   25.731306    9.839220
     394.500   11.412929   25.730534    9.834174
     399.500   11.408560   25.730410    9.829164
     404.500   11.404208   25.729661    9.824190
     409.500   11.399873   25.728918    9.819250
     414.500   11.395557   25.728164    9.814344
     419.500   11.391257   25.727451    9.809471
     424.500   11.386974   25.726716    9.804628
     429.500   11.382707   25.726003    9.799816
     434.500   11.378457   25.725291    9.795032
     439.500   11.374225   25.724586    9.790277
     444.500   11.370008   25.723866    9.785549
     449.500   11.365809   25.723170    9.780848
     454.500   11.361625   25.722698    9.776173
     459.500   11.357452   25.722061    9.771519
     464.500   11.353295   25.721364    9.766890
     469.500   11.349155   25.720640    9.762285
     474.500   11.345032   25.719913    9.757704
     479.500   11.340926   25.719182    9.753146
     484.500   11.336837   25.718419    9.748610
     489.500   11.332764   25.717697    9.744096
     494.500   11.328709   25.716972    9.739604
     499.500   11.324671   25.716263    9.735134
     504.500   11.320648   25.715552    9.730683
     509.500   11.316643   25.714902    9.726253
     514.500   11.312651   25.714246    9.721840
     519.500   11.308676   25.713551    9.717445
     524.500   11.304717   25.712844    9.713068
     529.500   11.300775   25.712134    9.708710
     534.500   11.296850   25.711424    9.704372
     539.500   11.292941   25.710702    9.700052
     544.500   11.289049   25.710005    9.695744
     549.500   11.285173   25.709276    9.691458
     554.500   11.281315   25.708553    9.687191
     559.500   11.277473   25.707816    9.682943
     564.500   11.273649   25.707104    9.678713
     569.500   11.269841   25.706395    9.674499
     574.500   11.266050   25.705688    9.670304
     579.500   11.262275   25.704985    9.666125
     584.500   11.258517   25.704276    9.661965
     589.500   11.254775   25.703577    9.657822
     594.500   11.251049   25.702868    9.653696
     599.500   11.247341   25.702162    9.649588
     604.500   11.243648   25.701456    9.645497
     609.500   11.239973   25.700757    9.641424
     614.500   11.236313   25.700061    9.637367
     619.500   11.232670   25.699363    9.633328
     624.500   11.229043   25.698673    9.629307
     629.500   11.225432   25.697987    9.625304
     634.500   11.221837   25.697317    9.621322
     639.500   11.218258   25.696674    9.617350
     644.500   11.214693   25.696016    9.613394
     649.500   11.211144   25.695362    9.609451
     654.500   11.207610   25.694713    9.605527
     659.500   11.204091   25.694071    9.601621
     664.500   11.200583   25.693692    9.597730
     669.500   11.197085   25.693249    9.593848
     674.500   11.193599   25.692671    9.589988
     679.500   11.190128   25.692027    9.586150
     684.500   11.186672   25.691347    9.582332
     689.500   11.183233   25.690670    9.578530
     694.500   11.179810   25.689976    9.574746
     699.500   11.176404   25.689283    9.570980
     704.500   11.173014   25.688600    9.567230
     709.500   11.169640   25.687927    9.563496
     714.500   11.166281   25.687263    9.559779
     719.500   11.162938   25.686603    9.556079
     724.500   11.159611   25.685948    9.552395
     729.500   11.156298   25.685294    9.548728
     734.500   11.153001   25.684644    9.545077
     739.500   11.149719   25.683997    9.541443
     744.500   11.146452   25.683354    9.537824
     749.500   11.143200   25.682714    9.534222
     754.500   11.139964   25.682076    9.530635
     759.500   11.136741   25.681440    9.527066
     764.500   11.133535   25.680794    9.523515
     769.500   11.130342   25.680161    9.519980
     774.500   11.127165   25.679532    9.516460
     779.500   11.124002   25.678907    9.512956
     784.500   11.120854   25.678288    9.509468
     789.500   11.117720   25.677711    9.505995
     794.500   11.114600   25.677081    9.502538
     799.500   11.111495   25.676462    9.499098
     804.500   11.108404   25.675845    9.495673
     809.500   11.105327   25.675231    9.492264
     814.500   11.102264   25.674631    9.488870
     819.500   11.099216   25.674035    9.485491
     824.500   11.096181   25.673442    9.482128
     829.500   11.093160   25.672857    9.478780
     834.500   11.090153   25.672271    9.475447
     839.500   11.087159   25.671686    9.472130
     844.500   11.084180   25.671289    9.468828
     849.500   11.081215   25.670517    9.465545
     854.500   11.078264   25.670110    9.462276
     859.500   11.075327   25.669345    9.459030
     864.500   11.072404   25.668977    9.455793
     869.500   11.069494   25.668427    9.452570
     874.500   11.066597   25.667874    9.449362
     879.500   11.063713   25.667315    9.446168
     884.500   11.060843   25.666755    9.442984
     889.500   11.057985   25.666201    9.439816
     894.500   11.055140   25.665662    9.436666
     899.500   11.052307   25.665116    9.433528
     904.500   11.049487   25.664584    9.430405
     909.500   11.046680   25.664047    9.427296
     914.500   11.043885   25.663515    9.424201
     919.500   11.041102   25.663618    9.421117
     924.500   11.038332   25.663095    9.418041
     929.500   11.035573   25.662579    9.414932
     934.500   11.032827   25.662061    9.411842
     939.500   11.030093   25.661537    9.408796
     944.500   11.027372   25.661019    9.405772
     949.500   11.024662   25.660520    9.402742
     954.500   11.021964   25.660043    9.399702
     959.500   11.019276   25.659612    9.396708
     964.500   11.016597   25.659281    9.393734
     969.500   11.013927   25.658860    9.390777
     974.500   11.011267   25.658402    9.387833
     979.500   11.008618   25.657953    9.384903
     984.500   11.005981   25.657458    9.381985
     989.500   11.003355   25.656996    9.379079
     994.500   11.000740   25.656511    9.376185
     999.500   10.998136   25.656047    9.373297
    1019.500   10.987836   25.654019    9.361898
    1039.500   10.977722   25.652115    9.350682
    1059.500   10.967780   25.650323    9.339583
    1079.500   10.958008   25.648544    9.328752
    1099.500   10.948406   25.646769    9.318117
    1119.500   10.938970   25.644994    9.307666
    1139.500   10.929698   25.643261    9.297396
    1159.500   10.920587   25.641579    9.287301
    1179.500   10.911631   25.639921    9.277379
    1199.500   10.902816   25.638562    9.267635
    1219.500   10.894144   25.636985    9.258032
    1239.500   10.885623   25.636212    9.248585
    1259.500   10.877249   25.634685    9.239294
    1279.500   10.869008   25.633302    9.230158
    1299.500   10.860909   25.631796    9.221167
    1319.500   10.852952   25.630294    9.212334
    1339.500   10.845130   25.628867    9.203645
    1359.500   10.837440   25.627479    9.195102
    1379.500   10.829880   25.626071    9.186703
    1399.500   10.822423   25.625138    9.178403
    1419.500   10.815068   25.623987    9.170093
    1439.500   10.807811   25.622954    9.161692
    1459.500   10.800655   25.621771    9.153513
    1479.500   10.793608   25.620616    9.145488
    1499.500   10.786669   25.619446    9.137606
    1519.500   10.779840   25.618151    9.129866
    1539.500   10.773134   25.617001    9.122256
    1559.500   10.766529   25.615860    9.114772
    1579.500   10.760035   25.614663    9.107424
    1599.500   10.753647   25.613575    9.100206
    1619.500   10.747360   25.612509    9.093115
    1639.500   10.741171   25.611490    9.086136
    1659.500   10.735074   25.610514    9.079279
    1679.500   10.729069   25.609530    9.072522
    1699.500   10.723153   25.608615    9.065871
    1719.500   10.717324   25.607658    9.059328
    1739.500   10.711584   25.607339    9.052890
    1759.500   10.705932   25.606399    9.046555
    1779.500   10.700367   25.605473    9.040321
    1799.500   10.694890   25.604516    9.034189
    1819.500   10.689501   25.603612    9.028154
    1839.500   10.684197   25.602709    9.022217
    1859.500   10.678974   25.601849    9.016373
    1879.500   10.673831   25.601003    9.010621
    1899.500   10.668766   25.600166    9.004957
    1919.500   10.663779   25.599348    8.999384
    1939.500   10.658869   25.598527    8.993896
    1959.500   10.654035   25.597725    8.988489
    1979.500   10.649279   25.596919    8.983163
    1999.500   10.644601   25.596029    8.977916
    2049.500   10.633218   25.594181    8.965147
    2099.500   10.622259   25.592425    8.952868
    2149.500   10.611704   25.590719    8.941052
    2199.500   10.601540   25.589100    8.929678
    2249.500   10.591744   25.587639    8.918728
    2299.500   10.582279   25.586166    8.908202
    2349.500   10.573166   25.584703    8.898041
    2399.500   10.564389   25.583312    8.888238
    2449.500   10.555936   25.581937    8.878788
    2499.500   10.547795   25.580616    8.869668
    2549.500   10.539942   25.579448    8.860856
    2599.500   10.532370   25.578197    8.852364
    2649.500   10.525066   25.577164    8.844181
    2699.500   10.518015   25.576033    8.836290
    2749.500   10.511222   25.574962    8.828676
    2799.500   10.504676   25.573929    8.821330
    2849.500   10.498365   25.572952    8.814237
    2899.500   10.492278   25.572013    8.807398
    2949.500   10.486408   25.571107    8.800788
    2999.500   10.480759   25.570192    8.794416
    3049.500   10.475309   25.569369    8.788274
    3099.500   10.470050   25.568573    8.782334
    3149.500   10.464972   25.567814    8.776601
    3199.500   10.460071   25.567076    8.771058
    3249.500   10.455341   25.566365    8.765692
    3299.500   10.450765   25.565744    8.760477
    3349.500   10.446343   25.565089    8.755455
    3399.500   10.442066   25.564482    8.750598
    3449.500   10.437938   25.563862    8.745896
    3499.500   10.433951   25.563275    8.741348
    3549.500   10.430099   25.562708    8.736946
    3599.500   10.426381   25.562142    8.732689
    3649.500   10.422792   25.561601    8.728573
    3699.500   10.419331   25.561037    8.724602
    3749.500   10.415998   25.560561    8.720760
    3799.500   10.412770   25.560135    8.717048
    3849.500   10.409622   25.559848    8.713450
    3899.500   10.406566   25.559422    8.709985
    3949.500   10.403613   25.558988    8.706621
    3999.500   10.400761   25.558566    8.703355
    4049.500   10.398006   25.558163    8.700191
    4099.500   10.395345   25.557777    8.697119
    4149.500   10.392772   25.557404    8.694142
    4199.500   10.390287   25.557042    8.691258
    4249.500   10.387885   25.556697    8.688464
    4299.500   10.385561   25.556373    8.685755
    4349.500   10.383317   25.555999    8.683135
    4399.500   10.381158   25.555670    8.680602
    4449.500   10.379069   25.555390    8.678147
    4499.500   10.377045   25.555114    8.675767
    4549.500   10.375089   25.554830    8.673464
    4599.500   10.373197   25.554574    8.671239
    4649.500   10.371365   25.554325    8.669080
    4699.500   10.369591   25.554072    8.666985
    4749.500   10.367873   25.553850    8.664953
    4799.500   10.366210   25.553622    8.662982
    4849.500   10.364599   25.553395    8.661070
    4899.500   10.363039   25.553182    8.659213
    4949.500   10.361517   25.553083    8.657338
    4999.500   10.360027   25.552921    8.655604
    5049.500   10.358584   25.552724    8.653921
    5099.500   10.357187   25.552528    8.652283
    5149.500   10.355836   25.552336    8.650688
    5199.500   10.354530   25.552127    8.649142
    5249.500   10.353276   25.551926    8.647643
    5299.500   10.352065   25.551766    8.646195
    5349.500   10.350891   25.551614    8.644788
    5399.500   10.349752   25.551453    8.643422
    5449.500   10.348649   25.551305    8.642096
    5499.500   10.347580   25.551165    8.640808
    5549.500   10.346545   25.551028    8.639558
    5599.500   10.345541   25.550903    8.638344
    5649.500   10.344569   25.550762    8.637165
    5699.500   10.343627   25.550641    8.636020
    5749.500   10.342713   25.550529    8.634908
    5799.500   10.341828   25.550401    8.633829
    5849.500   10.340970   25.550289    8.632782
    5899.500   10.340134   25.550223    8.631768
    5949.500   10.339322   25.550099    8.630828
    5999.500   10.338540   25.549984    8.629870
    6049.500   10.337781   25.549879    8.628882
    6099.500   10.337046   25.549772    8.627942
    6149.500   10.336334   25.549684    8.627063
    6199.500   10.335644   25.549595    8.626215
    6249.500   10.334974   25.549509    8.625399
    6299.500   10.334324   25.549427    8.624603
    6349.500   10.333693   25.549346    8.623829
    6399.500   10.333081   25.549269    8.623076
    6449.500   10.332488   25.549192    8.622344
    6499.500   10.331912   25.549121    8.621633
    6549.500   10.331351   25.549057    8.620941
    6599.500   10.330807   25.548988    8.620270
    6649.500   10.330279   25.548920    8.619619
    6699.500   10.329767   25.548853    8.618985
    6749.500   10.329271   25.548749    8.618375
    6799.500   10.328797   25.548684    8.617780
    6849.500   10.328340   25.548601    8.617208
    6899.500   10.327898   25.548553    8.616651
    6949.500   10.327468   25.548504    8.616112
    6999.500   10.327050   25.548454    8.615590
    7049.500   10.326643   25.548404    8.615084
    7099.500   10.326249   25.548354    8.614592
    7149.500   10.325866   25.548306    8.614115
    7199.500   10.325494   25.548259    8.613651
    7249.500   10.325134   25.548213    8.613200
    7299.500   10.324784   25.548169    8.612763
    7349.500   10.324445   25.548126    8.612337
    7399.500   10.324115   25.548085    8.611924
    7449.500   10.323796   25.548044    8.611523
    7499.500   10.323486   25.548005    8.611133
    7549.500   10.323185   25.547967    8.610754
    7599.500   10.322893   25.547931    8.610386
    7649.500   10.322609   25.547895    8.610028
    7699.500   10.322334   25.547861    8.609681
    7749.500   10.322067   25.547828    8.609343
    7799.500   10.321807   25.547795    8.609015
